Tw_in [°C];mw_dot [l/min];Hpev;Theater2 [°C];pc [bar];Tw_out [°C];Pheat_out [W];mw_dot [kg/s]
34.92668197;21.05355509;53.19137591;616.6815187;70.27682305;37.29678801;3479.634623;0.350892585
34.94458927;21.18505247;53.30631385;616.6309845;70.69734941;37.43650227;3681.31385;0.353084208
34.96249656;21.31654986;53.42125178;616.5804503;70.68895315;37.5667369;3871.135762;0.355275831
34.98040386;21.44804724;53.53618972;616.5299162;70.61437344;37.64390342;3983.646684;0.357467454
34.99831115;21.57954462;53.65112765;616.479382;70.53656938;37.68536739;4043.51872;0.359659077
35.01621844;21.711042;53.76606558;616.4288478;70.49129686;37.69582392;4056.878032;0.3618507
35.03412574;21.84253938;53.88100352;616.3783136;70.46363839;37.69288769;4049.701454;0.364042323
35.05203303;21.97403677;53.99594145;616.3277794;70.44145745;37.68479619;4034.243093;0.366233946
35.06994033;22.10553415;54.11087938;616.2772452;70.42153398;37.67452285;4014.944625;0.368425569
35.08784762;22.23703153;54.22581732;616.226711;70.39759237;37.66513065;3996.495715;0.370617192
35.10575492;22.23703153;54.34075525;616.1761768;70.37142817;37.67365067;3981.939215;0.370617192
35.12366221;22.23703153;54.45569318;616.1256426;70.33983284;37.68408524;3970.351551;0.370617192
35.1415695;22.23703153;54.57063112;616.0751084;70.30549141;37.69572222;3960.628415;0.370617192
35.1594768;22.23703153;54.68556905;616.0245742;70.26749296;37.70902041;3953.481232;0.370617192
35.17738409;22.23703153;54.80050698;615.97404;70.2278035;37.72339298;3948.000081;0.370617192
35.19529139;22.23703153;54.91544492;615.9235058;70.18680438;37.7387632;3944.06593;0.370617192
35.21319868;22.23703153;55.03038285;615.8729716;70.14553622;37.75479978;3941.165088;0.370617192
35.23110598;22.23703153;55.14532079;615.8224374;70.10446202;37.77134715;3939.0563;0.370617192
35.24901327;22.23703153;55.26025872;615.7719032;70.0638833;37.78831714;3937.602853;0.370617192
35.26692056;22.23703153;55.37519665;615.721369;70.02406352;37.80562194;3936.668604;0.370617192
35.28482786;22.23703153;55.49013459;615.6708348;69.98509031;37.82323984;3936.219837;0.370617192
35.30273515;22.23703153;55.60507252;615.6203006;69.94743442;37.8409875;3935.972312;0.370617192
35.32064245;22.23703153;55.72001045;615.5697664;69.91116161;37.85881379;3935.846686;0.370617192
35.33854974;22.23703153;55.83494839;615.5192322;69.8754549;37.87705536;3936.365047;0.370617192
35.35645704;22.23703153;55.94988632;615.468698;69.82998419;37.89979404;3943.85689;0.370617192
35.37436433;22.23703153;56.06482425;615.4181638;69.79256623;37.92035573;3947.972964;0.370617192
35.39227162;22.23703153;56.17976219;615.3676296;69.75870706;37.94001611;3950.69142;0.370617192
35.41017892;22.23703153;56.29470012;615.3170954;69.72819392;37.9588097;3952.065753;0.370617192
35.42808621;22.23703153;56.40963805;615.2665612;69.69972915;37.97722382;3952.851678;0.370617192
35.44599351;22.23703153;56.52457599;615.216027;69.67291047;37.99543276;3953.319418;0.370617192
35.4639008;22.23703153;56.63951392;615.1654928;69.6462542;38.01406419;3954.442305;0.370617192
35.4818081;22.23703153;56.75445185;615.1149586;69.62136961;38.03249752;3955.257999;0.370617192
35.49971539;22.23703153;56.86938979;615.0644245;69.59780197;38.05084786;3955.945022;0.370617192
35.51762268;22.23703153;56.98432772;615.0138903;69.57546044;38.0691284;3956.523805;0.370617192
35.53552998;22.23703153;57.09926566;614.9633561;69.55414956;38.08739619;3957.08281;0.370617192
35.55343727;22.23703153;57.21420359;614.9128219;69.53378677;38.10566746;3957.64722;0.370617192
35.57134457;22.23703153;57.32914152;614.8622877;69.514284;38.12395915;3958.243281;0.370617192
35.58925186;22.23703153;57.44407946;614.8117535;69.49558177;38.14227689;3958.879746;0.370617192
35.60715916;22.23703153;57.55901739;614.7612193;69.47762335;38.16062498;3959.563258;0.370617192
35.62506645;22.23703153;57.67395532;614.7106851;69.46035985;38.17900491;3960.296171;0.370617192
35.64297374;22.23703153;57.67395532;614.6601509;69.42087252;38.21474613;3987.950569;0.370617192
35.66088104;22.23703153;57.67395532;614.6096167;69.45810748;38.22159592;3970.80411;0.370617192
35.67878833;22.23703153;57.67395532;614.5590825;69.42655277;38.25349929;3992.507296;0.370617192
35.69669563;22.23703153;57.67395532;614.5085483;69.46605264;38.25929648;3973.728613;0.370617192
35.71460292;22.23703153;57.67395532;614.4580141;69.44299974;38.28818488;3990.756608;0.370617192
35.73251022;22.23703153;57.67395532;614.4074799;69.4904852;38.29103132;3967.402293;0.370617192
35.75041751;22.23703153;57.67395532;614.3569457;69.45404169;38.32528136;3992.744383;0.370617192
35.7683248;22.23703153;57.67395532;614.3064115;69.50111612;38.32900249;3970.74644;0.370617192
35.7862321;22.23703153;57.67395532;614.2558773;69.47373123;38.36020602;3991.364408;0.370617192
35.80413939;22.23703153;57.67395532;614.2053431;69.52847304;38.36109735;3964.978388;0.370617192
35.82204669;22.23703153;57.67395532;614.1548089;69.48780494;38.39758796;3993.794826;0.370617192
35.83995398;22.23703153;57.67395532;614.1042747;69.5417619;38.39938668;3968.815879;0.370617192
35.85786128;22.23703153;57.67395532;614.0537405;69.49600303;38.4388233;4002.200584;0.370617192
35.87576857;22.23703153;57.67395532;614.0032063;69.56637406;38.43374361;3966.555546;0.370617192
35.89367586;22.23703153;57.67395532;613.9526721;69.52650053;38.47041819;3995.657263;0.370617192
35.91158316;22.23703153;57.67395532;613.9021379;69.58661377;38.47028102;3967.676386;0.370617192
35.92949045;22.23703153;57.67395532;613.8516037;69.53413805;38.51274863;4005.761148;0.370617192
35.94739775;22.23703153;57.67395532;613.8010695;69.60746285;38.50695439;3969.008068;0.370617192
35.96530504;22.23703153;57.67395532;613.7505353;69.55458914;38.54973958;4007.585298;0.370617192
35.98321234;22.23703153;57.67395532;613.7000011;69.62747287;38.54425154;3971.307017;0.370617192
36.00111963;22.23703153;57.67395532;613.649467;69.57560235;38.58678242;4009.489889;0.370617192
36.01902692;22.23703153;57.67395532;613.5989328;69.64738511;38.58181685;3974.02181;0.370617192
36.03693422;22.23703153;57.67395532;613.5483986;69.5969224;38.62390751;4011.522035;0.370617192
36.05484151;22.23703153;57.67395532;613.4978644;69.66753381;38.61946714;3976.868361;0.370617192
36.07274881;22.23703153;57.67395532;613.4473302;69.61838064;38.66112861;4013.703051;0.370617192
36.0906561;22.23703153;57.67395532;613.396796;69.68804443;38.65710999;3979.703376;0.370617192
36.1085634;22.23703153;57.67395532;613.3462618;69.63985909;38.69844951;4016.038833;0.370617192
36.12647069;22.23703153;57.67395532;613.2957276;69.70895014;38.69469435;3982.447695;0.370617192
36.14437798;22.23703153;57.67395532;613.2451934;69.6612692;38.73586766;4018.525427;0.370617192
36.16228528;22.23703153;57.67395532;613.1946592;69.73024174;38.73218892;3985.052765;0.370617192
36.18019257;22.23703153;57.67395532;613.144125;69.68254102;38.77337628;4021.152291;0.370617192
36.19809987;22.23703153;57.67395532;613.0935908;69.7518874;38.76957351;3987.487304;0.370617192
36.21600716;22.23703153;57.67395532;613.0430566;69.70361811;38.81096547;4023.904109;0.370617192
36.23391446;22.23703153;57.67395532;612.9925224;69.77383999;38.80683595;3989.732434;0.370617192
36.25182175;22.23703153;57.67395532;612.9419882;69.73650736;38.84316014;4018.290839;0.370617192
36.26972904;22.23703153;57.67395532;612.891454;69.79489556;38.84440736;3992.456684;0.370617192
36.28763634;22.23703153;57.67395532;612.8409198;69.75685898;38.88094685;4021.34893;0.370617192
36.30554363;22.23703153;57.67395532;612.7903856;69.81294213;38.8830762;3996.882669;0.370617192
36.32345093;22.23703153;57.67395532;612.7398514;69.77787077;38.91844307;4023.95656;0.370617192
36.34135822;22.23703153;57.67395532;612.6893172;69.83269426;38.92096075;4000.092475;0.370617192
36.35926552;22.23703153;57.67395532;612.6893172;69.78849925;38.96084745;4034.175101;0.370617192
36.37717281;22.23703153;57.67395532;612.6893172;69.82473676;38.97217028;4023.964825;0.370617192
36.3950801;22.23703153;57.67395532;612.6893172;69.82048886;38.99732925;4035.209737;0.370617192
36.4129874;22.23703153;57.67395532;612.6893172;69.85737204;39.00661589;4021.841998;0.370617192
36.43089469;22.23703153;57.67395532;612.6893172;69.83923237;39.03733283;4041.705444;0.370617192
36.44880199;22.23703153;57.67395532;612.6893172;69.89495272;39.03947572;4017.260169;0.370617192
36.46670928;22.23703153;57.67395532;612.6893172;69.86445832;39.07404518;4043.09757;0.370617192
36.48461657;22.23703153;57.67395532;612.6893172;69.90053322;39.08505794;4032.406486;0.370617192
36.50252387;22.23703153;57.67395532;612.6893172;69.88961762;39.11276007;4047.594954;0.370617192
36.52043116;22.23703153;57.67395532;612.6893172;69.9346152;39.11900025;4029.503213;0.370617192
36.53833846;22.23703153;57.67395532;612.6893172;69.91492799;39.14942097;4048.907296;0.370617192
36.55624575;22.23703153;57.67395532;612.6893172;69.91432037;39.17593784;4062.257843;0.370617192
36.57415305;22.23703153;57.67395532;612.6893172;69.90676206;39.20359738;4077.38028;0.370617192
36.59206034;22.23703153;57.67395532;612.6893172;69.91720308;39.22463483;4082.234097;0.370617192
36.60996763;22.23703153;57.67395532;612.6893172;69.92718663;39.24481845;4085.763916;0.370617192
36.62787493;22.23703153;57.67395532;612.6893172;69.93563399;39.26516143;4089.540839;0.370617192
36.64578222;22.23703153;57.67395532;612.6893172;69.94184051;39.28614266;4094.307483;0.370617192
36.66368952;22.23703153;57.67395532;612.6893172;69.94669942;39.30752587;4099.697447;0.370617192
36.68159681;22.23703153;57.67395532;612.6893172;69.95827565;39.32630695;4101.052394;0.370617192
36.69950411;22.23703153;57.67395532;612.6893172;69.9754901;39.34279534;4098.852149;0.370617192
36.69950411;22.23703153;57.67395532;612.6893172;69.99816742;39.33730486;4090.338256;0.370617192
36.69950411;22.23703153;57.67395532;612.6893172;70.02240195;39.33059764;4079.937631;0.370617192
36.69950411;22.23703153;57.67395532;612.6893172;70.04765756;39.32297287;4068.114191;0.370617192
36.69950411;22.23703153;57.67395532;612.6893172;70.06556038;39.3173225;4059.352366;0.370617192
36.69950411;22.23703153;57.67395532;612.6893172;70.06130008;39.32037367;4064.083702;0.370617192
36.69950411;22.23703153;57.67395532;612.6893172;70.08186951;39.31408683;4054.334944;0.370617192
36.69950411;22.23703153;57.67395532;612.6893172;70.06662008;39.32144658;4065.747418;0.370617192
36.69950411;22.23703153;57.67395532;612.6893172;70.09787721;39.31113888;4049.763663;0.370617192
36.69950411;22.23703153;57.67395532;612.6893172;70.08000403;39.31915208;4062.189431;0.370617192
36.69950411;22.23703153;57.67395532;612.6893172;70.11192843;39.30889822;4046.289154;0.370617192
36.69950411;22.23703153;57.67395532;612.6893172;70.08064558;39.32172829;4066.184268;0.370617192
36.69950411;22.23703153;57.67395532;612.6893172;70.10687464;39.31383039;4053.937282;0.370617192
36.69950411;22.23703153;57.67395532;612.6893172;70.08307747;39.32409512;4069.854412;0.370617192
36.69950411;22.23703153;57.67395532;612.6893172;70.12620421;39.3090256;4046.486676;0.370617192
36.69950411;22.23703153;57.67395532;612.6893172;70.0906997;39.32323331;4068.518043;0.370617192
36.69950411;22.23703153;57.67395532;612.6893172;70.11345888;39.31657447;4058.192427;0.370617192
36.69950411;22.23703153;57.67395532;612.6893172;70.09690483;39.32389373;4069.542134;0.370617192
36.69950411;22.23703153;57.92644778;612.6893172;70.17409912;39.27824831;3998.761502;0.370617192
36.69950411;22.23703153;58.17894025;612.6893172;70.11283481;39.28386132;4007.465376;0.370617192
36.69950411;22.23703153;58.43143271;612.6893172;70.07137816;39.28405642;4007.767919;0.370617192
36.69950411;22.23703153;58.68392517;612.6893172;70.0271002;39.28574991;4010.393949;0.370617192
36.69950411;22.23703153;58.93641763;612.6893172;69.98213713;39.28780959;4013.587809;0.370617192
36.69950411;22.23703153;59.18891009;612.6893172;69.9371362;39.28985629;4016.761554;0.370617192
36.69950411;22.23703153;59.44140255;612.6893172;69.89227883;39.29177893;4019.742923;0.370617192
36.69950411;22.23703153;59.69389501;612.6893172;69.84758301;39.29356776;4022.516789;0.370617192
36.69950411;22.23703153;59.94638748;612.6893172;69.80302132;39.29524508;4025.117753;0.370617192
36.69950411;22.23703153;60.19887994;612.6893172;69.75856282;39.29683853;4027.588655;0.370617192
36.69950411;22.23703153;60.4513724;612.6893172;69.71418538;39.29837197;4029.966503;0.370617192
36.69950411;22.23703153;60.70386486;612.6893172;69.66987725;39.29986353;4032.27941;0.370617192
36.69950411;22.23703153;60.95635732;612.6893172;69.62563512;39.30132614;4034.54742;0.370617192
36.69950411;22.23703153;61.20884978;612.6893172;69.5814616;39.30276871;4036.784358;0.370617192
36.69950411;22.23703153;61.46134224;612.6893172;69.53736307;39.30419731;4038.999627;0.370617192
36.69950411;22.23703153;61.71383471;612.6893172;69.49334809;39.30561605;4041.199619;0.370617192
36.69950411;22.23703153;61.96632717;612.6893172;69.44942625;39.30702779;4043.38875;0.370617192
36.69950411;22.23703153;62.21881963;612.6893172;69.40560755;39.30843453;4045.570129;0.370617192
36.69950411;22.23703153;62.47131209;612.6893172;69.36190187;39.30983774;4047.746038;0.370617192
36.69950411;22.23703153;62.72380455;612.6893172;69.31831876;39.31123855;4049.918213;0.370617192
36.69950411;22.23703153;62.97629701;612.6893172;69.27486731;39.31263783;4052.088031;0.370617192
36.69950411;22.23703153;63.22878948;612.6893172;69.23155603;39.31403632;4054.25662;0.370617192
36.69950411;22.23703153;63.48128194;612.6893172;69.18839287;39.31543465;4056.424944;0.370617192
36.69950411;22.23703153;63.7337744;612.6893172;69.14538519;39.31683332;4058.593822;0.370617192
36.69950411;22.23703153;63.98626686;612.6893172;69.10253979;39.31823283;4060.763977;0.370617192
36.69950411;22.23703153;64.23875932;612.6893172;69.05986292;39.31963356;4062.936042;0.370617192
36.69950411;22.23703153;64.49125178;612.6893172;69.01736033;39.32103589;4065.110576;0.370617192
36.69950411;22.23703153;64.74374424;612.6893172;68.97503725;39.32244012;4067.288065;0.370617192
36.69950411;22.23703153;64.99623671;612.6893172;68.93289847;39.32384653;4069.468933;0.370617192
36.69950411;22.23703153;65.24872917;612.6893172;68.89094831;39.32525536;4071.65355;0.370617192
36.69950411;22.23703153;65.50122163;612.6893172;68.8491907;39.3266668;4073.842216;0.370617192
36.69950411;22.23703153;65.75371409;612.6893172;68.80762919;39.32808101;4076.035186;0.370617192
36.69950411;22.23703153;66.00620655;612.6893172;68.76626695;39.32949813;4078.232661;0.370617192
36.69950411;22.23703153;66.25869901;612.6893172;68.72510679;39.33091825;4080.43479;0.370617192
36.69950411;22.23703153;66.51119147;612.6893172;68.68415124;39.33234144;4082.641675;0.370617192
36.69950411;22.23703153;66.76368394;612.6893172;68.64340248;39.33376773;4084.85337;0.370617192
36.69950411;22.23703153;67.0161764;612.6893172;68.60286245;39.33519713;4087.069891;0.370617192
36.69950411;22.23703153;67.26866886;612.6893172;68.56253279;39.33662963;4089.291201;0.370617192
36.69950411;22.23703153;67.52116132;612.6893172;68.52241492;39.33806516;4091.51723;0.370617192
36.69950411;22.23703153;67.52116132;612.6893172;68.44461434;39.37133405;4143.106053;0.370617192
36.69950411;22.23703153;67.52116132;612.6893172;68.45729249;39.3684674;4138.660837;0.370617192
36.69950411;22.23703153;67.52116132;612.6893172;68.47482556;39.36158386;4127.986792;0.370617192
36.69950411;22.23703153;67.52116132;612.6893172;68.4401017;39.37560907;4149.735161;0.370617192
36.69950411;22.23703153;67.52116132;612.6893172;68.45672661;39.37014916;4141.26868;0.370617192
36.69950411;22.23703153;67.52116132;612.6893172;68.47475331;39.3630907;4130.323386;0.370617192
36.69950411;22.23703153;67.52116132;612.6893172;68.4440046;39.37573463;4149.929862;0.370617192
36.69950411;22.23703153;67.52116132;612.6893172;68.46074141;39.3704429;4141.724179;0.370617192
36.69950411;22.23703153;67.52116132;612.6893172;68.47791612;39.36401714;4131.759991;0.370617192
36.69950411;22.23703153;67.52116132;612.6893172;68.44926417;39.37602819;4150.385066;0.370617192
36.69950411;22.23703153;67.52116132;612.6893172;68.46539739;39.37113421;4142.796161;0.370617192
36.69950411;22.23703153;67.52116132;612.6893172;68.48119959;39.36547314;4134.017759;0.370617192
36.69950411;22.23703153;67.52116132;612.6893172;68.45627522;39.37612871;4150.540938;0.370617192
36.69950411;22.23703153;67.52116132;612.6893172;68.46510391;39.37428106;4147.675855;0.370617192
36.69950411;22.23703153;67.52116132;612.6893172;68.48775015;39.36591582;4134.704208;0.370617192
36.69950411;22.23703153;67.52116132;612.6893172;68.46153481;39.37715827;4152.137437;0.370617192
36.69950411;22.23703153;67.52116132;612.6893172;68.47523661;39.37336699;4146.258445;0.370617192
36.69950411;22.23703153;67.52116132;612.6893172;68.48752096;39.36940287;4140.111432;0.370617192
36.69950411;22.23703153;67.52116132;612.6893172;68.47532058;39.37512023;4148.977133;0.370617192
36.69950411;22.23703153;67.52116132;612.6893172;68.48414911;39.37306401;4145.788622;0.370617192
36.69950411;22.23703153;67.52116132;612.6893172;68.48608754;39.37327159;4146.110513;0.370617192
36.69950411;22.23703153;67.52116132;612.6893172;68.4905278;39.37256035;4145.007628;0.370617192
36.69950411;22.23703153;67.52116132;612.6893172;68.48926564;39.37420579;4147.55914;0.370617192
36.69950411;22.23703153;67.52116132;612.6893172;68.4985107;39.37157775;4143.483937;0.370617192
36.69950411;22.23703153;67.52116132;612.6893172;68.49395745;39.37440777;4147.872352;0.370617192
36.69950411;22.23703153;67.52116132;612.6893172;68.50169398;39.37262609;4145.10957;0.370617192
36.69950411;22.23703153;67.52116132;612.6893172;68.49876688;39.37472173;4148.359201;0.370617192
36.69950411;22.23703153;67.52116132;612.6893172;68.50593156;39.37309287;4145.833389;0.370617192
36.69950411;22.23703153;67.52116132;612.6893172;68.50241184;39.37539096;4149.396949;0.370617192
36.69950411;22.23703153;67.52116132;612.6893172;68.50864582;39.37413073;4147.442759;0.370617192
36.69950411;22.23703153;67.52116132;612.6893172;68.50904033;39.37485608;4148.567531;0.370617192
36.69950411;22.23703153;67.52116132;612.6893172;68.51493074;39.37360253;4146.623689;0.370617192
36.69950411;22.23703153;67.52116132;612.6893172;68.50785103;39.37724557;4152.272818;0.370617192
36.69950411;22.23703153;67.52116132;612.6893172;68.51227074;39.37675805;4151.516845;0.370617192
36.69950411;22.23703153;67.52116132;612.6893172;68.51674321;39.37579915;4150.029901;0.370617192
36.69950411;22.23703153;67.52116132;612.6893172;68.51491163;39.37745955;4152.60463;0.370617192
36.69950411;22.23703153;67.52116132;612.6893172;68.52458825;39.37445825;4147.95063;0.370617192
36.69950411;22.23703153;67.52116132;612.6893172;68.51539721;39.37886054;4154.777091;0.370617192
36.69950411;22.23703153;67.52116132;612.6893172;68.52416247;39.37655563;4151.20295;0.370617192
36.69950411;22.23703153;67.52116132;612.6893172;68.52717354;39.3761213;4150.529458;0.370617192
36.69950411;22.23703153;67.52116132;612.6893172;68.52321894;39.37835596;4153.994664;0.370617192
36.69950411;22.23703153;67.52116132;612.6893172;68.52504677;39.37866994;4154.481539;0.370617192
36.69950411;22.23703153;67.52116132;612.6893172;68.53059059;39.37712909;4152.092201;0.370617192
36.69950411;22.23703153;67.52116132;612.6893172;68.53032723;39.3778965;4153.282188;0.370617192
36.69950411;22.23703153;67.52116132;612.6893172;68.53093678;39.37854615;4154.289578;0.370617192
36.69950411;22.23703153;67.52116132;612.6893172;68.53158182;39.37895621;4154.925444;0.370617192
36.69950411;22.23703153;67.52116132;612.6893172;68.53470588;39.37838286;4154.036362;0.370617192
36.69950411;22.23703153;67.52116132;612.6893172;68.53852798;39.37749903;4152.665849;0.370617192
36.69950411;22.23703153;67.52116132;612.6893172;68.53744236;39.37863981;4154.434818;0.370617192
36.69950411;22.23703153;67.52116132;612.6893172;68.53881073;39.37865354;4154.456104;0.370617192
36.69950411;22.23703153;67.52116132;612.6893172;68.53726612;39.37999667;4156.53885;0.370617192
36.69950411;22.23703153;67.52116132;612.6893172;68.53950177;39.37964453;4155.992794;0.370617192
